t(s), y1(m), y2(m), v1(m/s), v2(m/s), a1(m/s^2), a2(m/s^2)
0,-9.800000000000002e-08,-9.800000000000002e-08,-0.0009800000000000002,-0.0009800000000000002,-9.8,-9.8
0.10000000000000184,-0.04898368267428339,-0.049147097999999535,-0.9760913926464987,-0.9809799999999866,-9.702487885614207,-9.8
0.20009999999999428,-0.19518623057861884,-0.19649029399999726,-1.942460801550152,-1.9619599999999675,-9.60584997834477,-9.8
0.30019999999998326,-0.4376393325134774,-0.44202958800000336,-2.8992050587992453,-2.942940000000162,-9.510174595866035,-9.8
0.40029999999997223,-0.775384321771444,-0.78576498000003,-3.846420032023191,-3.9239200000003653,-9.415452151319196,-9.8
0.5003999999999612,-1.2074720800769563,-1.2276964700000768,-4.784200633998666,-4.904900000000568,-9.321673153331668,-9.8
0.6004999999999502,-1.732962942482813,-1.767824058000144,-5.71264083216006,-5.885880000000771,-9.228828205066046,-9.8
0.7005999999999392,-2.3509266032139267,-2.4061477440002315,-6.631833658015203,-6.866860000000974,-9.136908003278513,-9.8
0.8006999999999281,-3.0604420224488726,-3.1426675280003384,-7.541871216467292,-7.847840000001177,-9.045903337386646,-9.8
0.9007999999999171,-3.860597334029928,-3.9773834100004666,-8.442844695043977,-8.82882000000138,-8.955805088546489,-9.8
1.0008999999999062,-4.750489754092296,-4.910295390000615,-9.334844373034523,-9.809800000001584,-8.866604228738836,-9.8
1.1009999999998952,-5.729225490603415,-5.941403468000783,-10.217959630535972,-10.790780000001787,-8.778291819864602,-9.8
1.2010999999998841,-6.795919653803329,-7.070707644000973,-11.092278957409272,-11.77176000000199,-8.690859012849202,-9.8
1.3011999999998731,-7.9496961675368825,-8.298207918001182,-11.957889962145957,-12.752740000002193,-8.604297046755873,-9.8
1.401299999999862,-9.189687681469328,-9.623904290001414,-12.814879380646873,-13.733720000002396,-8.518597247907792,-9.8
1.501399999999851,-10.515035484176046,-11.047796760001663,-13.663333084913244,-14.7147000000026,-8.433751029018966,-9.8
1.60149999999984,-11.92488941709805,-12.569885328001936,-14.503336091651116,-15.695680000002803,-8.349749888333772,-9.8
1.701599999999829,-13.418407789354436,-14.190169994002185,-15.334972570790265,-16.676660000001778,-8.266585408775061,-9.8
1.801699999999818,-14.99475729340332,-15.908650758002286,-16.1583258539182,-17.657640000000203,-8.184249257100753,-9.8
1.901799999999807,-16.653112921542814,-17.725327620002226,-16.973478442630125,-18.638619999998628,-8.10273318306882,-9.8
2.0018999999998,-18.392657883243665,-19.64020058000201,-17.78051201679579,-19.619599999997053,-8.022029018610608,-9.8
2.101900000000011,-20.210725572560914,-21.651209580001638,-18.578713229876183,-20.59959999999548,-7.942208099093373,-9.8
2.2019000000002222,-22.10821521050046,-23.7602185800011,-19.368972168671608,-21.579599999993906,-7.86318141494699,-9.8
2.3019000000004333,-24.084336531537975,-25.967227580000415,-20.15136786052482,-22.559599999992333,-7.784941063358152,-9.8
2.4019000000006443,-26.138307133461584,-28.27223657999957,-20.925978546439325,-23.53959999999076,-7.70747922014827,-9.8
2.5019000000008553,-28.269352399130216,-30.675245579998567,-21.6928816889039,-24.519599999989186,-7.630788138991001,-9.8
2.6019000000010664,-30.47670541901045,-33.176254579997405,-22.452153979638716,-25.499599999987613,-7.554860150637635,-9.8
2.7019000000012774,-32.759606914484166,-35.775263579996086,-23.203871347265085,-26.47959999998604,-7.479687662150114,-9.8
2.8019000000014884,-35.11730516191935,-38.472272579994616,-23.948108964897738,-27.459599999984466,-7.405263156141788,-9.8
2.9019000000016995,-37.54905591749633,-41.267281579992975,-24.684941257662974,-28.439599999982892,-7.331579190025604,-9.8
3.0019000000019105,-40.054122342782,-44.1602905799912,-25.414441910140944,-29.41959999998132,-7.258628395269859,-9.8
3.1019000000021215,-42.63177493104459,-47.15129957998924,-26.136683873734324,-30.399599999979745,-7.186403476661335,-9.8
3.2019000000023325,-45.28129143430176,-50.240308579987136,-26.851739373963547,-31.379599999978172,-7.114897211575762,-9.8
3.3019000000025436,-48.00195679109453,-53.42731757998488,-27.55967991768969,-32.3595999999766,-7.044102449255524,-9.8
3.4019000000027546,-50.793063054979605,-56.71232657998245,-28.26057630026505,-33.33959999997503,-6.974012110094597,-9.8
3.5019000000029656,-53.653909323733565,-60.09533557997989,-28.95449861261276,-34.319599999973455,-6.904619184930574,-9.8
3.6019000000031767,-56.583801669261,-63.576344579977146,-29.641516248236375,-35.29959999997188,-6.835916734343707,-9.8
3.7019000000033877,-59.58205306820132,-67.15535357997429,-30.32169791015892,-36.27959999997031,-6.767897887962988,-9.8
3.8019000000035987,-62.64798333322422,-70.83236257997122,-30.995111617793732,-37.259599999968735,-6.700555843779066,-9.8
3.9019000000038098,-65.78091904501034,-74.60737157996803,-31.661824713746146,-38.23959999996716,-6.633883867464061,-9.8
4.001900000004012,-68.98019348490746,-78.48038057996465,-32.321903870548006,-39.21959999996559,-6.567875291698117,-9.8
4.102000000003779,-72.24844417479274,-82.45540963796113,-32.976065343174106,-40.20057999996401,-6.502458490267493,-9.8
4.202100000003545,-75.58184945627183,-86.52863479395747,-33.62371129148569,-41.18155999996244,-6.43769324778391,-9.8
4.302200000003312,-78.97976038203758,-90.70005604795361,-34.264906610862376,-42.16253999996086,-6.37357307464451,-9.8
4.402300000003079,-82.44153446837451,-94.96967339994961,-34.89971555031806,-43.14351999995929,-6.310091545883654,-9.8
4.5024000000028455,-85.9665356307791,-99.33748684994546,-35.52820171893929,-44.12449999995771,-6.247242300529076,-9.8
4.602500000002612,-89.55413412022324,-103.80349639794115,-36.150428092258565,-45.10547999995614,-6.185019040964554,-9.8
4.702600000002379,-93.2037064600531,-108.36770204393667,-36.76645701856491,-46.08645999995456,-6.123415532298832,-9.8
4.802700000002146,-96.91463538351364,-113.03010378793205,-37.3763502251509,-47.06743999995299,-6.062425601740928,-9.8
4.902800000001912,-100.68630977189946,-117.79070162992727,-37.98016882449838,-48.04841999995141,-6.002043137981543,-9.8
5.002900000001679,-104.51812459331838,-122.64949556992231,-38.57797332040142,-49.02939999994984,-5.942262090580765,-9.8
5.103000000001446,-108.40948084206538,-127.60648560791722,-39.169823614029596,-50.01037999994826,-5.883076469361734,-9.8
5.203100000001212,-112.35978547860313,-132.66167174391194,-39.75577900992978,-50.99135999994669,-5.82448034381046,-9.8
5.303200000000979,-116.3684513701358,-137.81505397790653,-40.33589822196861,-51.97233999994511,-5.766467842481564,-9.8
5.403300000000746,-120.43489723177912,-143.06663230990094,-40.910239379215746,-52.95331999994354,-5.70903315240995,-9.8
5.5034000000005125,-124.55854756831397,-148.41640673989522,-41.478860031768676,-53.93429999994196,-5.652170518528318,-9.8
5.603500000000279,-128.73883261652054,-153.86437726788935,-42.04181715651924,-54.91527999994039,-5.595874243090507,-9.8
5.703600000000046,-132.9751882880862,-159.41054389388327,-42.59916716286273,-55.89625999993881,-5.540138685100579,-9.8
5.803699999999813,-137.26705611308435,-165.05490661787707,-43.15096589835023,-56.87723999993724,-5.484958259747575,-9.8
5.903799999999579,-141.61388318401305,-170.79746543987073,-43.697268654284834,-57.85821999993566,-5.430327437845896,-9.8
6.003899999999346,-146.01512210039434,-176.6382203598642,-44.23813017126193,-58.83919999993409,-5.37624074528126,-9.8
6.103999999999113,-150.4702309139219,-182.5771713778575,-44.77360464465398,-59.82017999993251,-5.3226927624622276,-9.8
6.2040999999988795,-154.97867307415777,-188.6143184938507,-45.303745730041314,-60.80115999993094,-5.269678123777107,-9.8
6.304199999998646,-159.53991737476812,-194.74966170784367,-45.828606548588425,-61.78213999992936,-5.217191517056329,-9.8
6.404299999998413,-164.15343790029698,-200.9832010198365,-46.34823969236679,-62.76311999992779,-5.165227683040151,-9.8
6.50439999999818,-168.8187139734672,-207.31493642982926,-46.862697229625105,-63.74409999992621,-5.113781414851638,-9.8
6.604499999997946,-173.53523010300668,-213.74486793782177,-47.3720307100059,-64.72507999992465,-5.062847557474985,-9.8
6.704599999997713,-178.30247593199783,-220.27299554381415,-47.87629116971133,-65.70605999992307,-5.01242100723894,-9.8
6.80469999999748,-183.11994618673742,-226.89931924780637,-48.37552913661697,-66.6870399999215,-4.962496711305416,-9.8
6.9047999999972465,-187.98714062610532,-233.62383904979842,-48.86979463533519,-67.66801999991992,-4.913069667163153,-9.8
7.004899999997013,-192.90356399144184,-240.4465549497903,-49.35913719222714,-68.64899999991835,-4.8641349221265076,-9.8
7.10499999999678,-197.86872595692282,-247.36746694778208,-49.84360584036556,-69.62997999991677,-4.815687572839173,-9.8
7.205099999996547,-202.8821410804235,-254.38657504377366,-50.32324912444839,-70.6109599999152,-4.7677227647828095,-9.8
7.305199999996313,-207.94332875488098,-261.50387923776515,-50.79811510566253,-71.59193999991362,-4.720235691790665,-9.8
7.40529999999608,-213.0518131601344,-268.7193795297564,-51.26825136649975,-72.57291999991205,-4.673221595565981,-9.8
7.505399999995847,-218.20712321524644,-276.03307591974755,-51.733705015525075,-73.55389999991047,-4.626675765205145,-9.8
7.605499999995613,-223.40879253130106,-283.4449684077385,-52.19452269209642,-74.5348799999089,-4.580593536725726,-9.8
7.70559999999538,-228.65635936466967,-290.95505699372933,-52.650750571038365,-75.51585999990732,-4.53497029259909,-9.8
7.805699999995147,-233.94936657074493,-298.56334167771996,-53.102434367268835,-76.49683999990575,-4.48980146128773,-9.8
7.905799999994914,-239.28736155813132,-306.2698224597104,-53.549619340379884,-77.47781999990417,-4.4450825167871795,-9.8
8.00589999999468,-244.6698962432971,-314.0744993397008,-53.99235029917285,-78.4587999999026,-4.400808978172497,-9.8
8.105999999994447,-250.09652700567472,-321.97737231769094,-54.430671606148266,-79.43977999990102,-4.356976409149265,-9.8
8.206099999994214,-255.56681464320917,-329.97844139368095,-54.86462718195069,-80.42075999989945,-4.313580417609107,-9.8
8.30619999999398,-261.08032432834824,-338.0777065676709,-55.29426050977007,-81.40173999989787,-4.270616655189546,-9.8
8.406299999993747,-266.6366255644738,-346.2751678396605,-55.71961463969891,-82.3827199998963,-4.228080816838278,-9.8
8.506399999993514,-272.23529214276283,-354.5708252096501,-56.140732193045565,-83.36369999989472,-4.185968640381848,-9.8
8.60649999999328,-277.8759020994829,-362.9646786776394,-56.557655366605346,-84.34467999989315,-4.144275906098527,-9.8
8.706599999993047,-283.55803767370946,-371.4567282436287,-56.97042593688852,-85.32565999989157,-4.102998436295511,-9.8
8.806699999992814,-289.2812852654634,-380.0469739076177,-57.37908526430642,-86.30663999989,-4.062132094890307,-9.8
8.90679999999258,-295.0452353942709,-388.73541566960665,-57.78367429731611,-87.28761999988842,-4.021672786996259,-9.8
9.006899999992347,-300.8494826581325,-397.5220535295954,-58.1842335765228,-88.26859999988685,-3.981616458512306,-9.8
9.106999999992114,-306.69362569289666,-406.40688748758396,-58.58080323874295,-89.24957999988527,-3.941959095716662,-9.8
9.20709999999188,-312.577267132049,-415.38991754357244,-58.97342302102569,-90.2305599998837,-3.90269672486468,-9.8
9.307199999991647,-318.5000135668884,-424.4711436975607,-59.36213226463417,-91.21153999988212,-3.8638254117907014,-9.8
9.407299999991414,-324.46147550711356,-433.6505659495488,-59.74696991898837,-92.19251999988055,-3.8253412615137785,-9.8
9.507399999991181,-330.46126734178756,-442.9281842995368,-60.12797454556715,-93.17349999987897,-3.787240417847464,-9.8
9.607499999990948,-336.49900730070766,-452.3039987475246,-60.50518432177295,-94.1544799998774,-3.7495190630133353,-9.8
9.707599999990714,-342.57431741614533,-461.77800929351224,-60.87863704475641,-95.13545999987582,-3.7121734172585317,-9.8
9.807699999990481,-348.6868234849731,-471.35021593749974,-61.24837013520455,-96.11643999987425,-3.6751997384769304,-9.8
9.907799999990248,-354.83615503117034,-481.0206186794871,-61.61442064108982,-97.09741999987267,-3.638594321834237,-9.8
10.007899999990014,-361.02194526870363,-490.7892175194743,-61.976825241382535,-98.0783999998711,-3.6023534993967408,-9.8
10.107999999989781,-367.2438310647673,-500.6560124574613,-62.335620249726276,-99.05937999986952,-3.566473639763771,-9.8
10.208099999989548,-373.5014529034036,-510.62100349344814,-62.69084161807644,-100.04035999986795,-3.530951147703833,-9.8
10.308199999989315,-379.79445484947234,-520.6841906274349,-63.042524940302805,-101.02133999986637,-3.4957824637943578,-9.8
10.408299999989081,-386.12248451298973,-530.8455738594215,-63.390705455755985,-102.0023199998648,-3.460964064065042,-9.8
10.508399999988848,-392.4851930138204,-541.1051531894078,-63.73541805279891,-102.98329999986322,-3.426492459644706,-9.8
10.608499999988615,-398.88223494671263,-551.4629286173941,-64.07669727230191,-103.96427999986165,-3.392364196411773,-9.8
10.708599999988381,-405.31326834669073,-561.9189001433803,-64.41457731110454,-104.94525999986007,-3.3585758546480937,-9.8
10.808699999988148,-411.77795465479227,-572.4730677673662,-64.74909202544148,-105.9262399998585,-3.3251240486963383,-9.8
10.908799999987915,-418.27595868414016,-583.1254314893517,-65.08027493433576,-106.90721999985692,-3.2920054266206904,-9.8
11.008899999987682,-424.8069485863568,-593.8759913093375,-65.40815922295685,-107.88819999985535,-3.259216669871013,-9.8
11.108999999987448,-431.37059581831403,-604.724747227323,-65.73277774594646,-108.86917999985377,-3.226754492950284,-9.8
11.209099999987215,-437.96657510921045,-615.6716992433081,-66.05416303070942,-109.8501599998522,-3.1946156430854886,-9.8
11.309199999986982,-444.59456442798074,-626.7168473572932,-66.37234728067494,-110.83113999985062,-3.1627968999015055,-9.8
11.409299999986748,-451.25424495102595,-637.8601915692783,-66.68736237852116,-111.81211999984905,-3.1312950750986346,-9.8
11.509399999986515,-457.9453010302682,-649.101731879263,-66.99923988937209,-112.79309999984747,-3.100107012132913,-9.8
11.609499999986282,-464.66742016152017,-660.4414682872476,-67.30801106395873,-113.7740799998459,-3.0692295858999863,-9.8
11.709599999986049,-471.4202929531714,-671.8794007932322,-67.61370684175142,-114.75505999984432,-3.0386597024218815,-9.8
11.809699999985815,-478.2036130951912,-683.4155293972166,-67.91635785405941,-115.73603999984275,-3.008394298537045,-9.8
11.909799999985582,-485.01707732842846,-695.0498540992006,-68.21599442710131,-116.71701999984117,-2.9784303415932856,-9.8
12.009899999985349,-491.8603854142307,-706.7823748991847,-68.51264658504242,-117.6979999998396,-2.94876482914405,-9.8
12.109999999985115,-498.7332401043573,-718.6130917971685,-68.80634405300448,-118.67897999983802,-2.9193947886474394,-9.8
12.210099999984882,-505.6353471111956,-730.5420047931523,-69.09711626004285,-119.65995999983645,-2.890317277168487,-9.8
12.310199999984649,-512.5664150782708,-742.5691138871358,-69.38499234209621,-120.64093999983487,-2.861529381084189,-9.8
12.410299999984415,-519.52615555105,-754.6944190791193,-69.67000114490615,-121.6219199998333,-2.8330282157915434,-9.8
12.510399999984182,-526.514282948044,-766.9179203691025,-69.95217122690752,-122.60289999983172,-2.8048109254185025,-9.8
12.610499999983949,-533.5305145321881,-779.2396177570854,-70.23153086208956,-123.58387999983015,-2.77687468253787,-9.8
12.710599999983716,-540.5745703825091,-791.6595112430684,-70.50810804282925,-124.56485999982857,-2.749216687883955,-9.8
12.810699999983482,-547.6461733660843,-804.1776008270513,-70.78193048269621,-125.545839999827,-2.7218341700720803,-9.8
12.910799999983249,-554.7450491102626,-816.7938865090339,-71.05302561922962,-126.52681999982542,-2.6947243853208924,-9.8
13.010899999983016,-561.8709259751778,-829.5083682890163,-71.32142061668803,-127.50779999982385,-2.6678846171773687,-9.8
13.110999999982782,-569.0235350265287,-842.3210461669986,-71.58714236877057,-128.48877999982227,-2.641312176244705,-9.8
13.21109999998255,-576.2026100086288,-855.2319201429807,-71.85021750131189,-129.4697599998207,-2.6150043999128103,-9.8
13.311199999982316,-583.4078873177331,-868.2409902169626,-72.11067237495003,-130.45073999981912,-2.5889586520915193,-9.8
13.411299999982083,-590.6391059756169,-881.3482563889445,-72.36853308776867,-131.43171999981755,-2.5631723229463637,-9.8
13.51139999998185,-597.8960076034347,-894.5537186589262,-72.62382547791083,-132.41269999981597,-2.5376428286372033,-9.8
13.611499999981616,-605.1783363958181,-907.8573770269076,-72.87657512616892,-133.3936799998144,-2.5123676110592186,-9.8
13.711599999981383,-612.4858390952522,-921.259231492889,-73.12680735854798,-134.37465999981282,-2.487344137586579,-9.8
13.81169999998115,-619.8182649666943,-934.7592820568701,-73.3745472488026,-135.35563999981125,-2.4625699008187487,-9.8
13.911799999980916,-627.1753657724539,-948.3575287188512,-73.6198196209505,-136.33661999980967,-2.4380424183291343,-9.8
14.011899999980683,-634.5568957473203,-962.053971478832,-73.86264905175824,-137.3175999998081,-2.4137592324165,-9.8
14.11199999998045,-641.9626115739267,-975.8486103368128,-74.10305987320588,-138.29857999980652,-2.3897179098585113,-9.8
14.212099999980216,-649.3922723583781,-989.7414452927933,-74.34107617492394,-139.27955999980495,-2.3659160416680223,-9.8
14.312199999979983,-656.8456396061089,-1003.7324763467736,-74.57672180660694,-140.26053999980337,-2.342351242851734,-9.8
14.41229999997975,-664.3224771979928,-1017.8217034987539,-74.81002038040413,-141.2415199998018,-2.3190211521711097,-9.8
14.512399999979516,-671.8225513666721,-1032.0091267487337,-75.04099527328519,-142.22249999980022,-2.2959234319058,-9.8
14.612499999979283,-679.345630673142,-1046.2947460967139,-75.26966962938172,-143.20347999979865,-2.2730557676195033,-9.8
14.71259999997905,-686.8914859835548,-1060.6785615426936,-75.49606636230816,-144.18445999979707,-2.250415867927863,-9.8
14.812699999978816,-694.4598904462591,-1075.160573086673,-75.72020815745559,-145.1654399997955,-2.2280014642690844,-9.8
14.912799999978583,-702.0506194690815,-1089.7407807286525,-75.9421174742664,-146.14641999979392,-2.205810310676468,-9.8
15.01289999997835,-709.6634506968054,-1104.419184468632,-76.16181654848454,-147.12739999979235,-2.1838401835533823,-9.8
15.112999999978117,-717.2981639889034,-1119.1957843066111,-76.37932739438303,-148.10837999979077,-2.1620888814505124,-9.8
15.213099999977883,-724.9545413974708,-1134.0705802425898,-76.59467180697042,-149.0893599997892,-2.140554224845207,-9.8
15.31319999997765,-732.6323671453872,-1149.0435722765687,-76.80787136417456,-150.07033999978762,-2.119234055923103,-9.8
15.413299999977417,-740.3314276046987,-1164.1147604085475,-77.01894742900377,-151.05131999978605,-2.0981262383620063,-9.8
15.513399999977183,-748.0515112752123,-1179.284144638526,-77.2279211516895,-152.03229999978447,-2.0772286571176215,-9.8
15.61349999997695,-755.7924087632997,-1194.5517249665043,-77.43481347180408,-153.0132799997829,-2.0565392182117748,-9.8
15.713599999976717,-763.5539127609193,-1209.9175013924823,-77.63964512035862,-153.99425999978132,-2.036055848522624,-9.8
15.813699999976484,-771.3358180248404,-1225.3814739164604,-77.84243662188163,-154.97523999977975,-2.0157764955767936,-9.8
15.91379999997625,-779.1379213560771,-1240.9436425384383,-78.04320829647467,-155.95621999977817,-1.9956991273438067,-9.8
16.01389999997602,-786.9600215795343,-1256.604007258416,-78.24198026184861,-156.9371999997766,-1.9758217320324594,-9.8
16.113999999975785,-794.8019195238383,-1272.3625680763937,-78.43877243533971,-157.91817999977502,-1.9561423178892072,-9.8
16.214099999975552,-802.6634180013882,-1288.219324992371,-78.6336045359056,-158.89915999977345,-1.9366589129985705,-9.8
16.31419999997532,-810.5443217885943,-1304.1742780063485,-78.82649608610069,-159.88013999977187,-1.9173695650855826,-9.8
